ID,gForceX,gForceY,gForceZ,rotX,rotY,rotZ,rawWeight
1,0.88,-0.5,-0.02,-0.93,-0.07,0.07,1134
2,0.88,-0.5,-0.01,-1.24,-0.2,-0.02,1100
3,0.88,-0.5,-0.01,-1.26,-0.08,-0.12,1104
4,0.88,-0.5,-0.01,-1.33,-0.08,-0.05,1136
5,0.88,-0.5,-0.01,-1.4,0.08,0.12,1144
6,0.88,-0.5,-0.01,-1.17,-0.01,0.04,1131
7,0.87,-0.5,-0.01,-1.27,-0.1,-0.08,1091
8,0.88,-0.5,-0.01,-0.92,0.24,0.02,1023
9,0.88,-0.5,-0.01,-1.44,0.01,-0.12,1062
10,0.88,-0.5,-0.0,-1.22,0.0,-0.02,1152
11,0.87,-0.51,-0.01,-1.12,0.0,0.03,1115
12,0.87,-0.5,-0.01,-1.27,-0.05,0.02,1062
13,0.88,-0.5,-0.01,-0.89,-0.15,-0.05,1049
14,0.88,-0.5,-0.02,-1.22,0.05,-0.09,1089
15,0.88,-0.51,-0.01,-1.7,0.06,0.0,1078
16,0.88,-0.5,-0.02,-1.41,-0.02,-0.02,1033
17,0.88,-0.5,-0.02,-0.82,-0.08,0.02,976
18,0.88,-0.5,-0.01,-1.33,-0.08,0.08,1031
19,0.88,-0.5,-0.01,-0.99,0.07,-0.02,1093
20,0.88,-0.5,-0.01,-1.04,-0.09,-0.11,1068
21,0.86,-0.55,-0.02,-2.65,-1.29,53.9,1076
22,0.82,-0.64,-0.01,-3.6,-1.05,79.68,1007
23,0.71,-0.74,-0.05,-4.0,-1.33,82.69,-5227
24,0.6,-0.83,-0.06,-3.65,-0.88,84.78,-5616
25,0.47,-0.93,-0.07,-4.02,-1.22,84.86,-8247
26,0.33,-0.98,-0.1,-3.94,-0.5,86.12,-11403
27,0.16,-1.02,-0.13,-3.8,-1.13,85.24,-14276
28,0.02,-1.02,-0.14,-4.28,-1.2,85.19,-16484
29,-0.14,-1.02,-0.15,-3.87,-1.01,86.24,-17700
30,-0.27,-0.98,-0.18,-3.08,-0.98,85.82,-18176
31,-0.43,-0.9,-0.2,-3.61,-0.79,86.22,-17987
32,-0.56,-0.81,-0.23,-3.98,-0.08,84.24,-16608
33,-0.7,-0.73,-0.26,-3.46,-1.17,84.57,-14359
34,-0.77,-0.59,-0.24,-3.28,-2.18,84.82,-11483
35,-0.86,-0.47,-0.25,-4.07,-0.88,85.1,-8196
36,-0.92,-0.31,-0.27,-3.87,-0.76,84.67,-4307
37,-0.94,-0.17,-0.27,-3.95,-1.18,85.21,426
38,-0.96,-0.01,-0.27,-3.47,-1.07,85.17,5399
39,-0.94,0.14,-0.25,-3.75,-0.61,85.49,10521
40,-0.91,0.3,-0.25,-3.62,-0.82,85.62,16096
41,-0.84,0.44,-0.22,-3.52,-1.22,84.95,21861
42,-0.77,0.56,-0.22,-4.16,-0.73,85.64,27437
43,-0.67,0.67,-0.21,-4.19,-1.16,85.35,32922
44,-0.56,0.79,-0.21,-3.65,-0.64,84.31,42240
45,-0.43,0.87,-0.18,-3.66,-1.13,84.72,46492
46,-0.29,0.92,-0.16,-3.96,-1.83,85.56,50025
47,-0.14,0.98,-0.13,-4.31,-1.1,85.79,52849
48,0.04,0.98,-0.08,-3.84,-1.01,86.66,54898
49,0.19,0.94,-0.08,-3.96,-0.61,86.37,56338
50,0.32,0.93,-0.09,-3.68,-1.21,86.32,56978
51,0.47,0.88,-0.05,-4.15,-1.23,86.66,56724
52,0.61,0.78,-0.03,-3.48,-1.54,85.96,55681
53,0.72,0.67,-0.01,-3.82,-1.05,85.97,53654
54,0.82,0.57,-0.0,-3.83,-1.37,85.6,50935
55,0.91,0.45,-0.0,-3.94,-0.28,85.63,47648
56,0.96,0.29,0.01,-3.69,-0.77,85.41,43653
57,1.0,0.15,0.02,-3.8,-1.34,85.68,38930
58,1.02,-0.01,0.01,-4.03,-1.61,86.18,33652
59,0.99,-0.16,-0.01,-3.69,-0.95,85.37,28328
60,0.96,-0.32,0.01,-3.87,-0.94,85.79,22864
61,0.91,-0.48,-0.01,-3.79,-0.27,85.63,17340
62,0.85,-0.6,-0.02,-3.63,-0.98,85.26,11647
63,0.74,-0.71,-0.05,-4.25,-1.34,85.02,6288
64,0.61,-0.82,-0.06,-3.48,-0.67,85.08,1177
65,0.49,-0.92,-0.07,-4.09,-1.0,85.79,-7369
66,0.34,-0.96,-0.08,-3.73,0.49,87.61,-11480
67,0.19,-1.01,-0.1,-3.98,-0.59,86.7,-14410
68,0.04,-1.03,-0.15,-4.0,-1.98,85.24,-16078
69,-0.11,-1.01,-0.16,-3.82,-1.47,86.03,-17360
70,-0.26,-0.97,-0.18,-3.7,-1.17,84.9,-18101
71,-0.4,-0.92,-0.19,-3.9,-0.82,85.38,-17887
72,-0.97,-1.08,-0.26,-3.71,-0.34,82.02,-16589
73,-0.66,-0.78,-0.21,-3.99,-0.64,85.75,-14569
74,-0.75,-0.61,-0.24,-4.07,-1.73,85.74,-11872
75,-0.83,-0.5,-0.24,-3.82,-0.56,85.93,-8674
76,-0.91,-0.35,-0.25,-3.9,-0.68,85.91,-4783
77,-0.96,-0.2,-0.27,-3.85,-0.86,85.86,-51
78,-0.98,-0.05,-0.26,-3.65,-0.56,85.69,5080
79,-0.95,0.11,-0.24,-3.85,-0.58,85.26,10326
80,-0.92,0.27,-0.25,-3.57,-0.98,85.53,15879
81,-0.88,0.43,-0.25,-3.76,-0.79,85.09,21466
82,-0.78,0.54,-0.23,-3.72,-0.82,85.1,26960
83,-0.7,0.66,-0.22,-3.56,-0.85,85.2,32392
84,-0.57,0.78,-0.18,-3.79,-0.56,85.36,37555
85,-0.46,0.87,-0.18,-3.19,-1.14,85.89,42446
86,-0.3,0.92,-0.15,-3.62,-1.5,86.22,46571
87,-0.15,0.95,-0.12,-3.49,-1.52,86.5,53064
88,-0.01,0.98,-0.12,-3.61,-0.94,85.78,55065
89,0.15,0.98,-0.09,-3.94,-1.11,85.5,56587
90,0.3,0.95,-0.07,-3.61,-0.98,86.18,57234
91,0.44,0.9,-0.06,-3.81,-0.9,86.18,56975
92,0.58,0.82,-0.04,-3.49,-1.4,85.11,55793
93,0.7,0.7,-0.02,-3.65,-1.0,86.44,53843
94,0.8,0.61,-0.01,-3.4,-0.6,85.63,51079
95,0.9,0.45,0.02,-2.63,-0.56,86.64,47526
96,0.96,0.34,0.0,-3.27,-0.89,86.62,43693
97,0.99,0.17,0.02,-3.13,-2.4,85.98,39074
98,1.03,0.01,0.03,-3.19,-1.18,85.43,33706
99,1.03,-0.15,0.02,-2.96,-0.4,85.64,28158
100,0.97,-0.3,0.01,-3.39,-1.11,85.15,22527
101,0.92,-0.46,-0.0,-3.08,-0.17,85.56,16973
102,0.85,-0.58,-0.02,-3.51,-1.3,85.63,11520
103,0.74,-0.7,-0.04,-3.34,-1.44,85.34,6153
104,0.61,-0.82,-0.06,-3.5,-1.53,85.37,892
105,0.51,-0.9,-0.08,-3.54,-0.59,85.85,-3881
106,0.38,-0.96,-0.09,-3.73,-0.65,85.69,-7620
107,0.21,-1.02,-0.11,-3.87,-0.48,84.56,-11063
108,0.06,-1.02,-0.12,-3.65,-0.68,85.7,-16485
109,-0.09,-1.01,-0.16,-3.84,-1.24,85.43,-17516
110,-0.24,-0.96,-0.17,-3.08,-0.79,85.83,-17881
111,-0.39,-0.92,-0.19,-3.78,-0.97,86.55,-17810
112,-0.53,-0.84,-0.2,-3.61,-0.55,86.9,-16648
113,-0.68,-0.74,-0.23,-3.82,-0.39,86.11,-14469
114,-0.76,-0.63,-0.25,-3.4,-1.15,86.56,-11617
115,-0.83,-0.51,-0.25,-3.44,-0.64,86.34,-8258
116,-0.9,-0.32,-0.25,-2.88,-1.05,85.46,-4151
117,-0.95,-0.2,-0.27,-3.34,-0.92,85.14,563
118,-0.97,-0.04,-0.25,-3.85,-0.95,85.07,5567
119,-0.95,0.1,-0.25,-3.73,-0.49,85.86,10758
120,-0.93,0.26,-0.25,-3.56,-0.6,85.92,16095
121,-0.87,0.4,-0.27,-3.83,-0.48,86.03,21798
122,-0.79,0.53,-0.23,-3.58,-0.52,85.98,27523
123,-0.7,0.66,-0.21,-3.34,-0.36,85.44,33029
124,-0.59,0.76,-0.21,-3.34,-0.99,85.6,38091
125,-0.45,0.85,-0.18,-3.22,-0.95,84.92,42702
126,-0.33,0.89,-0.16,-3.56,-1.42,85.23,46875
127,-0.18,0.95,-0.14,-3.56,-1.78,85.19,50421
128,-0.02,0.98,-0.13,-3.56,-1.33,86.02,53285
129,0.14,0.97,-0.09,-3.85,-1.26,86.79,55350
130,0.28,0.96,-0.07,-3.98,-0.18,86.21,56570
131,0.43,0.83,-0.07,-3.7,-1.15,85.54,57013
132,0.57,0.8,-0.05,-3.73,-1.87,91.82,55617
133,0.7,0.72,0.0,-3.54,-0.91,87.31,53623
134,0.8,0.62,0.0,-3.38,-0.99,85.77,50726
135,0.89,0.47,-0.0,-3.51,-0.67,85.66,47311
136,0.95,0.33,0.01,-3.98,-0.98,85.79,43171
137,1.0,0.18,0.02,-3.5,-1.08,85.98,38511
138,1.03,0.0,0.03,-3.21,-2.07,85.74,33157
139,1.01,-0.14,0.02,-3.1,-0.53,86.48,27640
140,0.98,-0.3,-0.01,-3.41,-1.37,86.02,21895
141,0.94,-0.42,0.01,-3.64,-0.21,86.39,16290
142,0.86,-0.58,-0.01,-3.57,-0.68,84.58,10963
143,0.76,-0.72,-0.04,-3.45,-0.51,85.27,5597
144,0.65,-0.81,-0.04,-3.56,-1.06,84.79,544
145,0.53,-0.88,-0.06,-3.15,-0.84,85.21,-4101
146,0.39,-0.96,-0.08,-3.53,-0.93,84.76,-8302
147,0.24,-0.99,-0.1,-3.4,0.44,86.63,-11686
148,0.08,-1.03,-0.12,-3.7,-0.89,86.11,-14368
149,-0.08,-1.12,-0.15,-3.91,-1.33,85.19,-16656
150,-0.22,-0.99,-0.17,-3.68,-0.74,87.5,-17787
151,-0.38,-0.91,-0.18,-3.47,-0.9,85.82,-18090
152,-0.51,-0.84,-0.2,-3.57,-0.68,86.55,-17861
153,-0.67,-0.77,-0.23,-3.59,-0.64,85.15,-16465
154,-0.76,-0.64,-0.25,-3.67,-0.51,85.53,-11207
155,-0.83,-0.49,-0.25,-3.31,-2.21,85.91,-7586
156,-0.88,-0.38,-0.24,-3.87,0.08,85.3,-3618
157,-0.96,-0.21,-0.26,-3.67,-1.1,85.11,1067
158,-0.95,-0.06,-0.26,-3.25,-1.06,85.7,6276
159,-0.95,0.08,-0.25,-2.79,-0.86,85.98,11574
160,-0.92,0.25,-0.26,-3.03,-1.01,85.78,17156
161,-0.87,0.4,-0.24,-2.9,-0.86,86.08,22850
162,-0.79,0.55,-0.23,-3.31,-1.08,84.82,28451
163,-0.71,0.66,-0.21,-2.92,-0.56,84.47,33910
164,-0.59,0.75,-0.19,-3.21,-0.83,85.11,38678
165,-0.47,0.85,-0.18,-3.27,-0.82,85.04,43024
166,-0.33,0.91,-0.15,-3.29,-0.76,85.73,47410
167,-0.18,0.96,-0.14,-3.11,-1.24,86.14,50955
168,-0.04,0.97,-0.12,-3.53,-0.94,86.82,53686
169,0.12,0.97,-0.09,-3.39,-0.62,86.76,55758
170,0.27,0.93,-0.08,-3.04,-1.24,85.39,56844
171,0.41,0.92,-0.05,-3.57,-0.68,85.06,57139
172,0.57,0.82,-0.02,-3.7,-0.77,87.04,56622
173,0.69,0.71,-0.02,-3.63,-1.17,86.61,55314
174,0.8,0.61,0.02,-3.6,-1.03,86.21,53148
175,0.89,0.48,0.01,-3.76,-1.53,85.89,50227
176,0.95,0.34,0.01,-3.37,-0.51,86.81,46818
177,0.97,0.18,0.01,-3.66,-0.99,86.66,37408
178,1.02,0.03,0.03,-3.45,-1.5,85.92,32115
179,1.02,-0.13,0.02,-3.5,-1.53,85.37,26635
180,0.97,-0.28,-0.0,-3.4,-1.25,86.26,21028
181,0.93,-0.43,-0.01,-3.47,-1.02,85.66,15232
182,0.85,-0.56,-0.02,-3.61,-0.71,85.81,9886
183,0.77,-0.69,-0.02,-3.51,-1.21,86.72,4905
184,0.63,-0.79,-0.05,-3.75,-0.77,85.65,-6
185,0.52,-0.88,-0.07,-3.75,-1.25,85.82,-4800
186,0.4,-0.96,-0.09,-3.49,-1.45,85.6,-8969
187,0.24,-1.01,-0.11,-3.31,-0.48,86.29,-12221
188,0.07,-1.01,-0.14,-3.67,-1.34,84.24,-14734
189,-0.08,-1.0,-0.16,-3.24,-0.9,85.67,-16747
190,-0.23,-1.0,-0.18,-3.66,-0.92,85.97,-17804
191,-0.36,-0.95,-0.18,-3.42,-0.87,86.28,-18101
192,-0.52,-0.83,-0.22,-3.66,-1.55,87.14,-17525
193,-0.64,-0.74,-0.23,-3.59,0.36,87.34,-16101
194,-0.73,-0.63,-0.25,-3.2,-1.87,87.11,-13808
195,-0.85,-0.53,-0.27,-3.4,-1.96,85.74,-10637
196,-0.9,-0.35,-0.26,-3.36,-0.64,85.48,-6977
197,-0.96,-0.19,-0.27,-3.61,-1.27,84.91,-2769
198,-0.95,-0.05,-0.24,-3.08,-0.58,84.71,7442
199,-0.95,0.08,-0.25,-3.3,-0.89,85.68,13046
200,-0.92,0.15,-0.26,-3.6,-1.4,95.08,18307
201,-0.87,0.4,-0.24,-3.56,-0.31,85.54,23649
202,-0.78,0.53,-0.22,-3.85,-0.9,85.66,29538
203,-0.7,0.66,-0.22,-3.6,-0.66,86.37,35464
204,-0.6,0.77,-0.21,-3.5,-0.59,86.65,40039
205,-0.46,0.85,-0.18,-3.38,-1.34,86.34,44476
206,-0.32,0.91,-0.17,-3.28,-0.95,86.45,48518
207,-0.18,0.92,-0.13,-4.02,-1.56,85.78,51833
208,-0.01,0.98,-0.11,-3.85,-1.22,85.44,54370
209,0.14,0.96,-0.1,-3.31,-0.93,85.41,56247
210,0.28,0.96,-0.09,-3.65,-1.48,86.35,57086
211,0.44,0.89,-0.06,-3.4,-0.49,85.79,57063
212,0.57,0.82,-0.04,-3.44,-0.92,86.67,56360
213,0.69,0.71,-0.01,-3.74,-1.81,88.64,54883
214,0.85,0.57,-0.03,-3.04,-0.92,80.47,52432
215,0.89,0.48,0.04,-3.42,-0.9,86.18,49258
216,0.96,0.33,0.01,-3.12,-1.23,86.27,45812
217,1.0,0.18,0.03,-3.07,-1.26,85.84,41316
218,1.01,0.03,0.02,-3.69,-1.53,85.94,36251
219,1.01,-0.13,0.02,-3.6,-1.25,86.02,30828
220,0.98,-0.29,-0.02,-3.63,-1.16,86.83,25175
221,0.93,-0.44,-0.01,-3.7,-0.69,86.55,19560
222,0.85,-0.57,-0.01,-3.33,-0.24,85.22,8463
223,0.74,-0.71,-0.05,-3.08,-1.1,85.24,3020
224,0.65,-0.79,-0.04,-3.48,-0.76,85.68,-1437
225,0.52,-0.89,-0.06,-3.42,-1.31,84.79,-5845
226,0.35,-0.94,-0.1,-3.7,-1.11,85.44,-9848
227,0.23,-1.0,-0.12,-3.69,-0.92,85.54,-13119
228,0.08,-0.99,-0.13,-3.05,-0.32,83.79,-15449
229,-0.05,-0.86,-0.14,-3.34,-1.89,86.55,-17070
230,-0.21,-0.98,-0.17,-3.38,-1.0,85.63,-17747
231,-0.35,-0.93,-0.18,-3.49,-1.1,86.4,-18095
232,-0.5,-0.87,-0.21,-3.67,-0.9,85.93,-17309
233,-0.63,-0.79,-0.23,-3.35,-0.66,86.95,-15556
234,-0.75,-0.66,-0.24,-3.44,-0.53,87.67,-13000
235,-0.84,-0.54,-0.27,-3.04,-0.93,83.77,-9869
236,-0.9,-0.36,-0.28,-3.31,-1.02,85.16,-6064
237,-0.93,-0.23,-0.27,-3.55,-0.96,85.91,-1664
238,-0.96,-0.09,-0.27,-3.17,-1.61,86.22,3032
239,-0.95,0.2,-0.28,-3.79,-1.95,98.45,8148
240,-0.9,0.24,-0.24,-3.28,-0.94,86.07,13689
241,-0.88,0.39,-0.25,-3.55,-0.97,86.71,19089
242,-0.81,0.52,-0.22,-3.26,-1.1,86.22,25637
243,-0.7,0.67,-0.22,-3.5,-1.09,85.6,31323
244,-0.58,0.76,-0.2,-3.56,-0.99,85.64,40734
245,-0.45,0.86,-0.17,-3.73,-0.8,92.57,45423
246,-0.32,0.94,-0.16,-3.76,-0.85,84.66,49242
247,-0.18,0.97,-0.16,-3.54,-0.79,85.93,52284
248,-0.02,0.97,-0.15,-3.36,-1.31,86.08,54852
249,0.16,0.97,-0.09,-3.11,-0.82,86.38,56281
250,0.29,0.94,-0.07,-3.4,-1.06,87.26,56983
251,0.44,0.89,-0.07,-2.93,-1.08,86.55,56959
252,0.58,0.82,-0.04,-2.64,-1.29,86.81,56056
253,0.7,0.71,-0.02,-2.93,-1.6,86.38,54206
254,0.78,0.61,-0.02,-2.29,-1.2,75.24,51557
255,0.88,0.48,-0.01,-3.13,-1.11,85.87,48607
256,0.95,0.33,-0.0,-2.96,-0.93,86.11,45040
257,0.99,0.17,-0.0,-3.1,-0.79,86.95,40075
258,1.04,0.03,0.02,-3.21,-1.38,86.76,35228
259,1.02,-0.14,0.02,-3.07,-1.9,86.29,29782
260,1.0,-0.31,0.02,-3.3,-0.5,86.53,24154
261,0.93,-0.44,-0.01,-3.37,-1.13,85.73,18516
262,0.85,-0.57,-0.02,-3.47,-0.76,85.9,12741
263,0.76,-0.69,-0.02,-3.23,-0.97,83.85,7585
264,0.64,-0.8,-0.07,-3.08,-1.18,85.27,2386
265,0.44,-0.88,-0.08,-3.22,-0.9,85.82,-6678
266,0.38,-0.96,-0.08,-3.34,-0.71,86.02,-10582
267,0.23,-1.01,-0.1,-3.08,-0.49,85.98,-13572
268,0.07,-0.97,-0.12,-3.05,-0.01,83.44,-15880
269,-0.09,-1.17,-0.16,-3.01,-1.78,73.3,-17168
270,-0.22,-1.01,-0.18,-3.5,-1.41,85.41,-17685
271,-0.37,-0.94,-0.21,-3.12,-1.4,85.15,-17938
272,-0.51,-0.87,-0.22,-3.37,-0.86,85.27,-17214
273,-0.63,-0.77,-0.23,-3.35,-0.5,86.38,-15326
274,-0.74,-0.62,-0.24,-3.06,-0.82,82.61,-12713
275,-0.83,-0.55,-0.26,-3.52,-1.61,86.57,-9351
276,-0.89,-0.39,-0.27,-3.38,-1.31,86.49,-5463
277,-0.93,-0.23,-0.26,-3.09,-1.4,86.25,-1613
278,-0.95,-0.06,-0.24,-3.14,-0.43,87.55,3366
279,-0.96,0.09,-0.26,-3.24,-0.66,87.11,9099
280,-0.92,0.25,-0.24,-2.84,-1.12,86.44,14702
281,-0.88,0.4,-0.24,-3.09,-0.53,85.77,20042
282,-0.8,0.53,-0.22,-2.95,-0.9,85.18,26498
283,-0.7,0.65,-0.22,-3.24,-1.03,85.76,31855
284,-0.58,0.75,-0.2,-3.33,-1.0,88.56,36827
285,-0.44,0.84,-0.18,-3.38,-0.79,88.19,41631
286,-0.31,0.93,-0.16,-3.25,-0.92,85.86,49578
287,-0.16,0.96,-0.14,-3.25,-0.93,86.27,53149
288,-0.01,0.97,-0.12,-3.45,-1.44,85.58,55344
289,0.15,0.98,-0.09,-3.43,-1.11,85.73,56618
290,0.3,0.96,-0.08,-3.04,-1.28,86.12,57161
291,0.45,0.87,-0.05,-3.25,-0.9,85.51,56867
292,0.59,0.8,-0.03,-3.78,-0.98,88.4,55833
293,0.71,0.71,-0.01,-3.62,-1.04,86.31,54014
294,0.81,0.57,0.0,-3.3,-1.31,86.4,51343
295,0.89,0.44,-0.0,-3.18,-1.63,86.79,47689
296,0.95,0.33,0.01,-3.27,-0.76,87.37,43694
297,1.01,0.15,0.01,-3.4,-1.02,86.33,39259
298,1.01,-0.0,0.02,-3.44,-1.87,86.03,34179
299,1.02,-0.15,0.02,-3.39,-0.55,85.74,28397
300,0.96,-0.31,-0.01,-2.92,-2.2,85.82,22615
301,0.91,-0.44,-0.0,-3.43,-1.28,85.5,17143
302,0.84,-0.58,-0.01,-3.5,-1.16,86.09,11792
303,0.76,-0.72,-0.02,-3.05,-0.88,84.53,6170
304,0.62,-0.8,-0.05,-3.09,-1.61,85.34,1100
305,0.48,-0.89,-0.09,-3.15,-1.53,85.11,-3335
306,0.36,-0.99,-0.1,-3.21,-1.0,84.27,-7403
307,0.21,-0.99,-0.11,-3.6,-0.42,84.92,-11190
308,0.06,-1.03,-0.13,-3.07,-0.97,74.88,-16225
309,-0.09,-1.01,-0.15,-3.3,-0.44,84.98,-17135
310,-0.24,-0.98,-0.17,-3.19,-0.93,85.34,-18281
311,-0.39,-0.95,-0.2,-3.3,-1.08,85.28,-17936
312,-0.52,-0.85,-0.21,-3.16,-1.31,86.49,-16627
313,-0.65,-0.76,-0.22,-2.75,-0.6,85.6,-14879
314,-0.73,-0.72,-0.2,-2.78,-0.69,84.85,-12133
315,-0.83,-0.5,-0.25,-3.4,-0.66,85.63,-8329
316,-0.9,-0.37,-0.27,-3.23,-1.23,85.91,-4592
317,-0.95,-0.22,-0.26,-3.17,-0.69,86.18,-356
318,-0.96,-0.06,-0.26,-3.66,-0.19,86.1,4762
319,-0.94,0.01,-0.24,-3.55,0.13,83.62,10371
320,-0.93,0.26,-0.26,-3.27,-1.15,86.11,15693
321,-0.86,0.39,-0.23,-3.28,-0.69,86.49,21403
322,-0.8,0.55,-0.23,-3.44,-0.95,86.88,27630
323,-0.68,0.67,-0.21,-3.58,-1.35,86.52,32778
324,-0.58,0.78,-0.2,-3.55,-0.6,86.15,37946
325,-0.44,0.86,-0.18,-3.45,-1.04,85.64,42680
326,-0.29,0.93,-0.14,-3.31,-0.64,85.17,46594
327,-0.16,0.97,-0.13,-3.6,-1.08,85.43,50396
328,0.0,0.99,-0.11,-3.71,-1.23,86.1,53220
329,0.16,0.97,-0.08,-3.47,-1.08,86.69,56812
330,0.3,0.92,-0.07,-3.5,-0.82,87.37,57325
331,0.47,0.87,-0.04,-3.73,-0.92,91.2,56798
332,0.6,0.78,-0.02,-3.35,-0.58,88.68,55397
333,0.72,0.74,-0.03,-3.18,-1.05,83.62,53364
334,0.85,0.55,0.01,-3.82,-1.31,86.9,50324
335,0.93,0.44,0.01,-3.45,-1.24,86.73,46932
336,0.99,0.27,0.03,-3.34,-1.0,86.85,42532
337,1.02,0.12,0.03,-3.54,-0.31,86.29,37543
338,1.01,-0.03,0.01,-3.4,-1.42,86.44,32253
339,1.0,-0.2,0.01,-2.76,-0.73,86.57,26684
340,0.95,-0.34,0.02,-3.55,-1.5,86.22,20890
341,0.89,-0.47,0.0,-2.92,-1.05,85.78,15054
342,0.83,-0.61,-0.02,-2.94,-0.65,85.31,9655
343,0.72,-0.73,-0.03,-3.02,-1.32,85.4,4410
344,0.6,-0.82,-0.06,-2.95,-1.01,84.95,-625
345,0.46,-0.91,-0.07,-3.03,-0.67,85.28,-5039
346,0.36,-0.88,-0.09,-1.63,-0.48,83.32,-8848
347,0.18,-0.98,-0.12,-2.82,-1.18,76.16,-12276
348,0.03,-1.03,-0.14,-2.79,-0.97,85.63,-14911
349,-0.13,-0.98,-0.16,-3.4,-0.09,86.94,-16647
350,-0.28,-0.98,-0.18,-2.91,-0.74,85.4,-18395
351,-0.41,-0.92,-0.19,-3.4,-1.3,85.68,-17402
352,-0.57,-0.81,-0.22,-2.64,-1.82,81.73,-15886
353,-0.67,-0.75,-0.23,-3.0,-0.92,85.37,-13714
354,-0.77,-0.61,-0.24,-3.14,-0.58,83.95,-10753
355,-0.9,-0.49,-0.29,-3.05,-0.37,84.31,-7430
356,-0.94,-0.33,-0.28,-3.21,-1.01,85.37,-3175
357,-0.94,-0.19,-0.26,-3.42,-1.69,86.33,1202
358,-0.95,-0.08,-0.28,-3.63,-1.21,95.11,6200
359,-0.96,0.14,-0.27,-3.47,-0.87,86.05,11545
360,-0.91,0.29,-0.25,-3.28,-1.24,86.5,17651
361,-0.86,0.43,-0.24,-2.98,-0.59,85.95,24004
362,-0.76,0.57,-0.23,-3.01,-1.0,85.56,29424
363,-0.68,0.68,-0.21,-3.06,-1.25,86.03,34679
364,-0.55,0.76,-0.21,-2.89,-0.52,76.24,39400
365,-0.43,0.89,-0.19,-3.24,-1.3,86.4,43495
366,-0.29,0.93,-0.15,-2.83,-1.14,86.27,47576
367,-0.13,0.97,-0.14,-3.11,-0.73,86.31,51749
368,0.02,1.0,-0.11,-3.35,-1.02,86.5,54235
369,0.18,0.99,-0.09,-3.98,-1.23,87.15,56069
370,0.33,0.94,-0.07,-3.44,-0.92,87.53,57082
371,0.48,0.81,-0.04,-3.5,-0.89,94.85,57203
372,0.63,0.79,-0.04,-3.75,-0.59,91.73,56363
373,0.75,0.74,-0.0,-3.46,0.04,86.06,54524
374,0.82,0.54,0.0,-3.82,-1.69,88.63,49550
375,0.93,0.4,0.04,-3.52,-0.85,86.69,45494
376,0.97,0.27,0.02,-3.22,-1.07,87.33,40834
377,1.0,0.11,0.02,-3.65,-0.8,85.95,35607
378,1.01,-0.05,0.0,-3.77,-1.11,86.89,30309
379,0.99,-0.21,0.02,-3.23,-1.11,86.36,24823
380,0.97,-0.38,0.02,-3.39,-1.47,85.91,18963
381,0.89,-0.49,0.01,-2.96,-1.36,85.9,13190
382,0.81,-0.63,-0.01,-3.44,-0.86,86.01,7856
383,0.71,-0.75,-0.04,-3.33,-1.08,86.02,2856
384,0.59,-0.85,-0.06,-3.29,-0.76,85.31,-1903
385,0.45,-0.92,-0.08,-3.83,-1.45,85.37,-6385
386,0.26,-0.98,-0.09,-3.44,-0.32,85.83,-10316
387,0.16,-1.0,-0.12,-3.42,-1.91,85.08,-13346
388,-0.0,-1.03,-0.15,-3.49,-1.03,83.51,-15533
389,-0.14,-1.0,-0.16,-3.47,-0.79,85.95,-17059
390,-0.29,-0.95,-0.19,-3.55,-0.55,85.24,-18086
391,-0.45,-0.89,-0.21,-3.58,-1.13,85.08,-18065
392,-0.57,-0.83,-0.22,-3.54,-1.34,83.63,-17053
393,-0.63,-0.67,-0.3,-3.3,-2.22,81.73,-15219
394,-0.8,-0.61,-0.26,-3.28,-1.9,86.53,-12598
395,-0.86,-0.47,-0.26,-3.28,-0.82,85.98,-6558
396,-0.91,-0.32,-0.25,-3.23,-0.81,86.08,-1936
397,-0.96,-0.17,-0.25,-3.46,-0.16,86.86,3023
398,-0.99,-0.05,-0.22,-3.53,-0.34,80.94,8094
399,-0.95,0.15,-0.25,-3.6,-0.56,85.76,13425
400,-0.91,0.32,-0.25,-3.36,-0.93,85.53,19482
401,-0.85,0.45,-0.24,-3.27,-0.89,86.14,25662
402,-0.77,0.57,-0.22,-3.48,-1.05,86.18,31039
403,-0.66,0.7,-0.22,-3.4,-0.96,86.71,35959
404,-0.57,0.77,-0.23,-3.35,-1.42,85.57,40701
405,-0.4,0.89,-0.16,-3.69,-0.84,86.02,44944
406,-0.26,0.95,-0.15,-3.25,-1.05,85.52,49499
407,-0.1,0.96,-0.13,-3.66,-1.11,85.46,52481
408,0.03,0.98,-0.11,-2.72,-1.05,85.28,54743
409,0.19,0.94,-0.09,-3.43,-1.12,85.98,56378
410,0.34,0.92,-0.06,-3.69,-1.11,86.51,57195
411,0.49,0.82,-0.05,-3.87,-0.72,99.88,57136
412,0.64,0.79,-0.03,-3.73,-0.73,89.5,56104
413,0.77,0.65,0.0,-3.21,-0.6,87.79,53781
414,0.83,0.52,-0.02,-4.35,-1.64,85.14,51657
415,0.96,0.42,0.02,-3.75,-0.89,87.85,48267
416,0.99,0.26,0.02,-3.6,-1.55,86.61,44186
417,1.0,0.1,0.02,-3.52,-1.87,86.65,39571
418,1.01,-0.09,0.0,-3.34,-1.79,86.32,28621
419,0.99,-0.21,-0.0,-3.49,-1.34,86.15,22991
420,0.96,-0.38,0.01,-3.59,-0.82,86.51,17379
421,0.88,-0.5,-0.02,-3.49,-2.17,86.51,11663
422,0.81,-0.66,-0.02,-3.66,-1.24,85.95,6268
423,0.7,-0.76,-0.04,-3.37,-0.86,86.05,990
424,0.57,-0.86,-0.08,-3.47,-1.62,86.27,-3646
425,0.44,-0.92,-0.07,-3.28,-0.74,86.0,-7607
426,0.28,-0.98,-0.1,-4.1,-0.54,85.05,-11167
427,0.14,-1.01,-0.12,-4.18,-1.39,84.98,-14144
428,-0.01,-1.0,-0.15,-4.37,-1.07,84.84,-16269
429,-0.17,-0.98,-0.18,-4.46,-1.44,81.86,-17583
430,-0.29,-0.96,-0.18,-4.18,-0.59,85.82,-18157
431,-0.46,-0.88,-0.22,-3.3,-0.96,85.34,-17977
432,-0.58,-0.81,-0.22,-3.62,-1.36,85.61,-17085
433,-0.69,-0.73,-0.25,-2.98,-0.98,85.36,-14857
434,-0.79,-0.56,-0.27,-2.94,-1.57,85.69,-11681
435,-0.86,-0.43,-0.25,-2.78,-1.2,85.29,-8302
436,-0.91,-0.29,-0.25,-3.28,-0.56,85.53,-4739
437,-0.92,-0.11,-0.23,-3.75,-0.53,88.34,-101
438,-0.97,-0.01,-0.26,-5.04,-1.52,86.36,4656
439,-0.94,0.19,-0.25,-2.38,-0.68,85.76,15637
440,-0.89,0.33,-0.24,-2.45,-0.89,86.07,21424
441,-0.85,0.47,-0.25,-2.6,-0.97,86.48,27393
442,-0.75,0.6,-0.22,-2.94,-0.97,86.11,33021
443,-0.65,0.71,-0.22,-2.55,-1.32,87.08,37906
444,-0.52,0.83,-0.18,-2.4,-1.11,85.66,42305
445,-0.38,0.86,-0.16,-2.12,-0.95,85.37,46328
446,-0.25,0.96,-0.16,-2.36,-0.74,85.15,50325
447,-0.1,0.96,-0.13,-2.19,-0.98,85.94,53212
448,0.07,0.98,-0.11,-2.13,-1.02,85.91,55259
449,0.22,0.97,-0.09,-2.74,-0.68,86.48,56539
450,0.38,0.88,-0.06,-3.39,-1.14,96.66,57030
451,0.52,0.88,-0.03,-2.14,-0.64,72.92,56580
452,0.66,0.77,-0.02,-2.44,-1.43,91.95,54972
453,0.78,0.64,0.0,-2.4,-1.36,86.92,53718
